#file number,time from start,flux,flux error
27,0.000000,40189,169
28,0.109717,40523,171
29,0.219183,41463,172
30,0.328650,40779,170
31,0.438100,40185,169
32,0.547567,40856,171
33,0.657017,41247,173
34,0.766217,41124,172
35,0.875417,40453,171
36,0.984367,40538,171
37,1.094083,41002,169
38,1.203033,40317,168
39,1.311700,41077,169
40,1.420650,40784,169
42,1.638533,40790,169
43,1.747200,40124,168
44,1.856400,41237,170
45,1.965600,40720,169
46,2.075067,40003,168
47,2.184000,40374,168
48,2.293467,41125,169
49,2.402933,40661,169
50,2.512133,40829,169
51,2.621850,41114,170
52,2.731300,40697,169
53,2.840767,41776,170
54,2.950233,40896,169
55,3.059950,40546,168
56,3.169150,41708,170
57,3.278617,40698,169
58,3.388333,40140,168
59,3.497783,41263,170
60,3.607517,40727,169
61,3.716967,40299,168
62,3.826167,40420,168
100,7.989567,40301,168
101,8.098767,41150,170
102,8.208483,40404,169
103,8.317950,40194,168
104,8.427417,40370,168
105,8.536617,40717,169
106,8.645550,40548,169
107,8.754500,39633,167
108,8.863433,40942,171
109,8.972367,39966,169
110,9.082350,41000,169
111,9.191550,40586,169
112,9.300750,40700,169
113,9.410217,40486,168
114,9.519417,40849,169
115,9.628867,40306,168
116,9.738600,40367,168
117,9.848317,41549,170
118,9.957000,41209,170
119,10.066967,41182,169
120,10.176950,40089,168
121,10.286417,40693,169
122,10.396133,42001,171
123,10.505067,40915,169
124,10.614533,40942,169
125,10.724250,40776,169
126,10.833717,41005,169
127,10.943433,40382,168
128,11.053150,40595,168
129,11.162883,41233,169
130,11.272600,40954,169
131,11.382050,40693,169
132,11.491517,40883,169
133,11.600983,40553,169
134,11.710433,39583,167
135,11.819900,40633,169
136,11.929350,40981,169
137,12.038817,40355,168
138,12.148533,40618,169
139,12.257733,39860,168
140,12.367200,40292,168
141,12.476917,40257,168
142,12.586383,40140,168
143,12.695833,39742,167
144,12.805567,41024,169
145,12.915017,40783,170
146,13.024217,41285,171
147,13.133683,39003,166
148,13.242883,40962,171
149,13.352333,40643,171
150,13.462067,40753,171
151,13.571267,39722,170
152,13.680983,40410,170
153,13.790433,38881,167
154,13.900683,39871,168
155,14.010400,40282,169
156,14.119600,40765,169
157,14.229317,40608,170
158,14.338783,42030,172
159,14.448500,40315,169
160,14.557967,41295,171
161,14.667167,40941,170
162,14.776617,40938,169
163,14.886350,41634,170
164,14.996067,40700,169
165,15.105517,40606,169
166,15.215250,41466,170
167,15.324700,41071,169
168,15.433900,40509,169
169,15.543367,40919,169
170,15.652817,41013,169
171,15.762283,41019,169
172,15.871750,39644,167
173,15.981200,40351,168
174,16.090667,40901,169
175,16.200383,40491,168
176,16.310100,40746,169
177,16.419300,32911,157
178,16.529033,39907,167
179,16.638233,39566,167
180,16.747683,40810,169
181,16.857400,39798,167
182,16.967650,40684,169
183,17.077100,41699,170
190,17.843850,39092,166
194,18.281683,40763,169
195,18.390633,40690,169
196,18.499567,40284,169
197,18.608767,39722,168
198,18.717967,40363,169
199,18.827167,40303,168
200,18.936117,40803,169
201,19.045050,41321,170
202,19.154767,39210,167
203,19.264233,41112,170
204,19.373433,40723,169
205,19.482883,40216,168
206,19.592350,40853,169
207,19.702067,40093,168
208,19.811533,40002,168
209,19.920733,40304,169
210,20.030200,40177,168
211,20.139650,39008,167
212,20.248850,41153,170
213,20.358317,39870,168
214,20.467767,40753,169
215,20.577233,39856,168
216,20.686700,40391,169
217,20.796150,40280,168
218,20.905617,40302,169
219,21.014817,40958,170
220,21.124267,40245,168
221,21.233467,40160,168
222,21.343200,40155,168
223,21.452650,40383,169
224,21.561850,40852,169
225,21.671317,39363,167
226,21.781033,40729,169
227,21.890500,40701,169
228,22.000217,40978,169
229,22.109933,40908,169
230,22.219400,41735,171
231,22.328850,39056,166
232,22.438317,41419,170
233,22.547517,40187,168
234,22.656983,39975,168
235,22.766700,41001,170
236,22.876150,40114,168
237,22.985883,41197,170
238,23.095333,40368,169
239,23.204800,40752,169
240,23.314000,40298,168
241,23.423717,41219,170
242,23.532917,41221,170
243,23.642383,41386,170
244,23.751833,40769,169
245,23.861300,40390,169
246,23.970767,40879,169
247,24.079967,40863,169
248,24.189167,40657,169
249,24.298617,40454,168
250,24.408083,41210,170
251,24.517283,40874,169
252,24.627000,40539,169
253,24.736467,40914,169
254,24.845667,41108,169
255,24.955117,41338,172
256,25.064583,39127,167
257,25.174033,40256,168
258,25.283500,40717,168
259,25.393217,41181,170
260,25.502683,41605,170
261,25.612133,40573,169
262,25.721867,40235,168
263,25.831067,40324,168
264,25.940517,40919,169
265,26.050250,39974,168
266,26.159183,40956,169
267,26.268650,40545,169
268,26.378367,40101,168
269,26.487567,40054,168
270,26.597283,40408,168
271,26.707000,40860,170
272,26.816200,40036,169
273,26.925667,40992,172
274,27.035383,40851,171
275,27.144583,40122,170
276,27.254300,40048,169
277,27.363767,41262,171
278,27.472967,41126,171
279,27.582417,40736,170
280,27.692150,40433,170
281,27.801350,40510,170
282,27.911067,40553,170
283,28.020783,40929,171
284,28.130250,40896,170
285,28.239967,41297,171
286,28.349433,39923,170
287,28.458633,41618,173
288,28.568083,42040,173
289,28.677283,41697,173
290,28.786483,40333,171
291,28.895950,40162,170
292,29.005667,41001,172
293,29.115133,41369,172
294,29.224850,40716,171
295,29.334567,40863,171
296,29.444283,40243,170
297,29.553483,39912,169
298,29.662950,40160,170
299,29.772667,40004,170
300,29.881867,40133,170
301,29.991333,40056,170
302,30.101050,40170,170
303,30.210767,40566,170
304,30.320233,40027,170
305,30.429950,40678,169
306,30.539417,40321,169
307,30.648617,40365,168
308,30.758333,40311,168
309,30.867783,40492,169
310,30.977250,40378,169
311,31.086450,39996,168
312,31.195917,40129,168
313,31.305367,41125,170
314,31.414833,41291,170
315,31.523767,40266,168
316,31.632450,40598,169
317,31.741650,40901,169
318,31.851367,40540,169
319,31.961100,40522,169
320,32.070550,40958,170
321,32.180017,41069,170
322,32.289733,40391,168
323,32.399717,40540,169
324,32.509433,40624,169
325,32.618900,40197,168
326,32.728350,40580,169
327,32.837817,40331,169
328,32.947267,40768,169
329,33.057000,40675,169
330,33.166450,40771,169
331,33.275917,40697,169
332,33.385117,40396,169
333,33.494583,40940,169
334,33.603783,40354,169
335,33.713233,40593,169
336,33.822183,40501,169
337,33.931117,40234,168
338,34.040317,41114,170
339,34.149783,40499,169
340,34.259500,40565,169
341,34.368950,40778,169
342,34.478150,40774,169
343,34.587617,39425,167
344,34.697083,39952,168
345,34.806800,40057,168
346,34.916517,39998,168
347,35.025717,40300,169
348,35.135183,39910,168
349,35.244633,40010,168
350,35.353833,40885,169
351,35.463300,40265,168
352,35.572767,39952,168
353,35.681967,39297,167
354,35.791417,41300,170
355,35.900883,40173,168
356,36.010333,41316,170
357,36.119800,40310,168
358,36.229517,41165,170
359,36.338717,40069,168
360,36.448433,40900,170
361,36.558167,40942,170
362,36.668133,40183,168
363,36.777333,39882,168
364,36.887067,39890,168
365,36.996783,39997,168
366,37.106250,40195,168
367,37.215700,40621,169
368,37.325417,40438,169
369,37.434617,40551,168
370,37.544083,39908,167
371,37.653800,41155,169
372,37.763267,40568,168
373,37.872717,40407,168
374,37.982450,39886,168
375,38.091900,40959,169
376,38.201367,40723,169
377,38.311083,40602,169
378,38.420283,40315,169
379,38.530000,40912,169
380,38.639467,40859,170
381,38.749183,40554,169
382,38.858650,40496,169
383,38.968367,40274,169
384,39.078083,41022,170
385,39.187550,40586,169
386,39.297267,40657,169
387,39.406983,41188,170
388,39.516700,40415,169
389,39.625900,41076,170
390,39.735633,40757,169
391,39.845083,40918,170
392,39.954283,40261,169
393,40.064000,41088,170
394,40.173467,40885,170
395,40.282933,40365,169
396,40.392383,40531,169
397,40.502100,40121,168
398,40.611567,39867,168
399,40.721283,40500,169
400,40.830750,40484,169
401,40.940217,40845,170
402,41.049667,39721,168
403,41.159383,40193,168
404,41.268583,41320,170
405,41.378050,40589,169
406,41.487517,40580,169
407,41.596967,40450,169
408,41.706433,40296,169
409,41.816150,40357,169
410,41.925617,40438,169
411,42.035067,40769,169
412,42.144533,40619,169
413,42.253467,39585,168
414,42.363183,40781,169
415,42.472917,40244,169
416,42.582367,40201,168
417,42.691833,40528,169
418,42.801550,40776,170
419,42.911267,39741,168
420,43.020467,40691,170
421,43.130200,39262,167
422,43.239917,40009,168
423,43.349367,40421,169
424,43.459100,39718,168
425,43.568300,39431,167
426,43.677750,39482,168
427,43.787217,40727,170
428,43.896667,40790,170
429,44.006133,40960,170
430,44.115333,40252,169
431,44.225050,40437,169
432,44.334250,40319,169
433,44.443967,40086,168
434,44.553700,39713,168
435,44.663150,40925,170
436,44.772617,40933,170
437,44.882333,40168,169
438,44.991800,40324,169
439,45.101517,40105,169
440,45.210983,39779,168
441,45.320700,40627,169
442,45.430150,40623,169
443,45.539883,41339,171
444,45.649600,40329,169
445,45.759050,40676,169
446,45.868517,41527,171
447,45.978233,40804,170
448,46.087950,41474,171
449,46.197417,39676,168
450,46.307133,40300,169
451,46.416850,39566,168
452,46.526050,40611,169
453,46.635517,40276,169
454,46.745233,40508,169
455,46.854700,39947,169
456,46.964167,40985,170
457,47.073617,40116,169
458,47.183083,41044,170
459,47.292533,40628,170
460,47.402000,40863,170
461,47.511200,40179,169
462,47.620917,40350,169
463,47.730383,40266,169
464,47.839833,40308,169
465,47.949300,40143,169
466,48.058767,41155,170
467,48.167967,40591,169
468,48.277683,41075,170
469,48.387133,40681,169
470,48.496600,39986,168
471,48.606317,39916,168
472,48.715783,40253,169
473,48.824983,41126,170
474,48.934700,41093,170
475,49.043900,41105,170
476,49.153367,39783,168
477,49.262817,41233,171
478,49.372800,40784,170
479,49.482517,39870,168
480,49.591717,40032,169
481,49.701450,40542,169
482,49.810900,41037,170
483,49.920100,40022,169
484,50.029817,40436,169
485,50.139800,40895,170
486,50.249267,40234,169
487,50.358983,40396,169
488,50.468450,40524,170
489,50.577650,41007,170
490,50.687100,38914,167
491,50.796567,40300,169
492,50.906033,39816,168
493,51.015483,41035,170
494,51.124950,40311,169
495,51.234150,40562,170
496,51.343867,41700,171
497,51.453333,41244,171
498,51.562783,40792,170
499,51.672500,41310,171
500,51.781967,40027,169
501,51.891433,40718,170
502,52.000633,40717,170
503,52.110350,40067,169
504,52.219550,40232,169
505,52.328750,39917,169
506,52.438467,42583,172
507,52.547667,39683,168
508,52.656867,40432,169
509,52.766333,40798,169
510,52.876050,41619,171
511,52.985767,41060,170
512,53.095483,40314,169
513,53.205217,39945,168
514,53.314417,40317,169
515,53.424133,39920,168
516,53.533583,41242,170
517,53.643050,40852,169
518,53.752767,39838,168
519,53.862483,40423,169
520,53.971950,40883,170
521,54.081417,41350,170
522,54.190867,40782,170
523,54.300333,39621,168
524,54.410050,40264,169
525,54.519517,40345,169
526,54.628967,40901,170
527,54.738433,40496,169
528,54.848150,40799,170
529,54.957867,40648,170
530,55.067067,40539,169
531,55.176800,40316,169
532,55.286250,40322,169
533,55.395967,40748,170
534,55.505433,40337,169
535,55.615150,40555,169
536,55.724350,39857,168
537,55.834067,41103,170
538,55.943800,42411,172
539,56.053250,40241,169
540,56.162983,40564,169
541,56.272433,40116,169
542,56.382150,41113,170
543,56.491617,40322,169
544,56.601333,40757,170
545,56.711050,40687,170
546,56.820783,39856,168
547,56.930500,40192,169
548,57.039950,39851,168
549,57.149683,40788,170
550,57.259133,40758,170
551,57.368850,40470,169
552,57.478583,40906,170
553,57.588033,39167,168
554,57.697233,40389,169
555,57.806700,39287,168
556,57.916417,31408,156
557,58.025883,40673,170
558,58.135600,40715,170
559,58.245067,41197,171
560,58.354517,40744,170
561,58.463983,41126,171
562,58.573433,39885,169
563,58.682633,40515,170
564,58.792367,39875,169
565,58.901567,39750,168
566,59.011017,40341,169
567,59.120733,40140,169
568,59.229933,39775,169
569,59.339400,40013,169
570,59.449117,40342,170
571,59.558583,40342,169
572,59.668033,40918,170
573,59.777767,40867,170
574,59.886967,40885,170
575,59.996417,40091,169
576,60.105883,41191,171
577,60.215600,39019,168
578,60.325067,39374,168
579,60.434267,40957,171
580,60.543467,40668,170
581,60.652667,41091,171
582,60.762117,40921,170
583,60.871583,26695,148
584,60.980783,40658,170
585,61.089983,29483,153
586,61.199450,38643,168
587,61.308650,40145,173
588,61.418367,40184,173
589,61.527817,40279,169
590,61.637550,40520,170
591,61.747267,40173,169
592,61.856733,40340,170
593,61.965933,40485,170
594,62.075133,39904,169
595,62.184583,40186,169
596,62.293533,39684,169
597,62.402983,39697,169
598,62.512450,39689,168
599,62.621650,40792,170
600,62.731367,39454,168
601,62.840300,39883,169
602,62.948983,40963,170
603,63.057933,41095,171
604,63.166600,40662,170
605,63.275550,39217,168
606,63.385000,39918,169
607,63.494200,40481,170
608,63.603150,40353,170
609,63.712350,41105,171
610,63.821550,41073,171
611,63.930483,40443,170
612,64.039433,40193,170
613,64.149417,40014,170
614,64.258350,41000,171
615,64.367283,39851,169
616,64.476750,39043,168
617,64.586217,40422,169
618,64.695417,40791,170
619,64.804617,39706,169
620,64.914067,40360,171
621,65.023783,40210,170
622,65.132983,40210,171
623,65.241933,41014,172
624,65.351650,40441,170
625,65.460850,40263,171
626,65.569800,40632,170
627,65.678733,39717,169
628,65.788200,40730,170
629,65.897650,40368,169
630,66.007117,40203,169
631,66.116567,40514,170
632,66.226300,39727,169
633,66.336017,38772,169
634,66.445733,40390,172
635,66.555450,39469,175
636,66.665167,36792,166
637,66.774367,39654,176
638,66.883833,39357,172
639,66.993300,38658,171
640,67.102750,40251,169
641,67.212467,40609,170
642,67.321933,40812,170
643,67.431400,40339,170
644,67.540850,40433,170
645,67.650583,40258,169
646,67.759783,40895,170
647,67.869500,40518,169
648,67.978950,40793,170
649,68.088683,40570,170
650,68.198133,39709,168
651,68.307850,17550,132
652,68.417050,39887,169
653,68.526517,40149,169
654,68.636233,39893,172
655,68.745950,40388,169
656,68.855150,40587,170
657,68.964617,40150,169
658,69.074333,40116,169
659,69.183533,40473,170
660,69.293250,40422,169
661,69.402983,40214,169
662,69.512183,40548,170
663,69.621633,40494,170
664,69.731100,39615,168
665,69.840300,40414,170
666,69.949767,39926,169
667,70.059483,40679,170
668,70.168933,39789,169
669,70.278400,40360,170
670,70.388117,40637,170
671,70.497317,39672,168
672,70.607033,40403,170
673,70.716500,40221,170
674,70.826217,39542,168
675,70.935417,40498,170
676,71.044883,39895,169
677,71.154600,40567,170
678,71.264067,40252,170
679,71.373783,39875,169
680,71.483500,40402,170
681,71.592967,41053,171
682,71.702167,40097,170
683,71.811883,40546,170
684,71.921350,39641,169
685,72.031067,39639,169
686,72.140783,40688,171
687,72.250500,39709,169
688,72.359967,39407,169
689,72.469417,39873,170
690,72.579150,40183,170
691,72.688600,40216,170
692,72.798067,40124,170
693,72.907783,40856,171
694,73.017250,40047,170
695,73.126450,40845,171
696,73.236167,40262,170
697,73.345633,40250,170
698,73.455083,40476,170
699,73.564800,40237,170
700,73.674783,40207,170
701,73.783983,39904,170
702,73.893450,39870,170
703,74.003167,40534,170
704,74.112100,40224,170
705,74.221300,40092,170
706,74.330767,40318,170
707,74.439967,39796,170
708,74.549167,39922,170
709,74.658367,39475,169
710,74.767567,39779,169
711,74.876767,40067,170
712,74.985967,40134,170
713,75.095167,39968,170
714,75.204633,40333,170
715,75.313833,39668,169
716,75.423550,40475,170
717,75.533017,40682,171
718,75.642733,40109,170
719,75.752183,39931,170
720,75.861650,40277,170
721,75.970850,40053,170
722,76.080567,39531,169
723,76.190033,39078,169
724,76.299483,40538,171
725,76.409217,39332,169
726,76.518667,39306,169
727,76.628383,40289,170
728,76.738117,39779,170
729,76.847833,39963,170
730,76.957033,40407,171
731,77.066500,39567,169
732,77.176217,40270,170
733,77.285933,40565,171
734,77.395400,40943,171
735,77.505117,39943,170
736,77.614567,40615,171
737,77.724300,39860,170
738,77.834017,39791,170
739,77.943467,39957,170
740,78.052933,39755,170
741,78.162400,39799,170
742,78.272117,40234,170
743,78.381567,40413,171
744,78.490767,41410,172
745,78.600500,40059,170
746,78.709950,39315,169
747,78.819667,40613,171
748,78.929133,39914,170
749,79.038600,39240,169
750,79.148317,39990,170
751,79.258033,39661,170
752,79.367750,40389,171
753,79.477217,39949,170
754,79.586933,39946,170
755,79.696650,40150,170
756,79.806117,39937,170
757,79.915583,39288,169
758,80.025033,36601,165
759,80.134500,39713,169
760,80.243950,40505,171
761,80.353417,40124,170
762,80.462883,39451,169
763,80.572333,39657,169
764,80.682050,39186,169
765,80.791517,39535,169
766,80.900983,39501,169
767,81.010433,39327,169
768,81.119900,40712,171
769,81.229367,24552,146
770,81.339083,40448,171
771,81.448800,40474,170
772,81.558267,39591,169
773,81.667983,40154,170
774,81.777433,40088,170
775,81.886900,40456,171
776,81.996100,39987,170
777,82.105817,41217,172
778,82.215283,40078,170
779,82.324733,39948,170
780,82.434467,40059,170
781,82.543917,40724,171
782,82.653383,40687,171
783,82.763100,38713,168
784,82.872567,41158,172
785,82.982017,40121,170
786,83.091483,40360,171
787,83.200950,40182,171
788,83.310667,39099,169
789,83.420383,40057,170
790,83.530100,39410,170
791,83.639817,39964,170
792,83.749283,38977,169
793,83.859267,38070,169
794,83.968983,38717,169
795,84.078183,39973,171
796,84.187383,39119,169
797,84.296850,39138,169
798,84.406300,39533,170
799,84.516017,40121,171
800,84.625483,40170,171
801,84.734950,23263,144
802,84.844400,40315,171
803,84.953867,39731,170
804,85.063067,40313,171
805,85.172783,40682,171
806,85.282250,40419,171
807,85.391450,40422,171
808,85.501167,40701,171
809,85.610883,39774,170
810,85.720083,40923,172
811,85.829800,40820,172
812,85.939533,40549,171
813,86.048983,39780,170
814,86.158450,40655,172
815,86.267900,40126,171
816,86.377367,39669,170
817,86.486833,39677,170
818,86.596550,39808,170
819,86.706017,39830,170
820,86.815467,39526,170
821,86.924933,40424,171
822,87.034383,39348,169
823,87.143583,39149,169
824,87.253317,40084,171
825,87.362250,39629,170
826,87.471717,40342,171
827,87.581167,40225,171
828,87.690367,39826,170
829,87.799833,39263,169
830,87.908767,39525,170
831,88.017717,39980,170
832,88.127433,39891,171
833,88.236883,39168,169
834,88.346350,40242,171
835,88.456600,39794,170
836,88.566567,39783,171
837,88.676300,39287,170
838,88.785500,40062,171
839,88.895217,39484,170
840,89.004667,40793,172
841,89.114133,40171,171
842,89.223850,39629,170
843,89.333567,40005,171
844,89.443300,38851,169
845,89.552750,41042,171
846,89.662467,39604,169
847,89.771933,40194,170
848,89.881400,39179,168
849,89.991117,39778,170
850,90.100050,40487,171
851,90.209767,39091,168
852,90.319233,40355,170
853,90.428700,40113,170
854,90.538417,40243,170
855,90.647883,39842,170
856,90.757333,39537,169
857,90.867050,39993,170
858,90.976517,39819,169
859,91.085717,39068,169
860,91.195433,40118,170
861,91.305150,40395,171
862,91.414883,40336,170
863,91.524083,40379,170
864,91.633800,40137,170
865,91.743517,39497,169
866,91.852983,39964,170
867,91.962433,39850,170
868,92.071900,40163,170
869,92.181367,39928,170
870,92.291083,38846,168
871,92.400800,39362,169
872,92.510517,40194,170
873,92.619983,39563,169
874,92.729700,40266,170
875,92.839417,40019,170
876,92.948883,40236,170
877,93.057817,39500,170
878,93.167283,39925,170
879,93.276733,39442,169
880,93.386200,39995,170
881,93.495917,40913,171
882,93.605383,40742,171
883,93.714833,40104,170
884,93.824567,40274,170
885,93.933767,40056,170
886,94.044000,40134,170
887,94.153467,40090,170
888,94.263183,39552,169
889,94.372900,39784,170
890,94.482100,40543,171
891,94.591817,38945,168
892,94.701283,40449,171
893,94.810750,39424,169
894,94.920467,40599,171
895,95.029917,39657,169
896,95.139117,39688,170
897,95.248850,39979,170
898,95.358050,40166,170
899,95.467250,39810,170
900,95.576967,39787,170
901,95.686417,39543,169
902,95.795883,39415,169
903,95.905350,39517,170
904,96.014550,40116,170
905,96.124533,39538,170
906,96.234250,38848,168
907,96.343967,39669,169
908,96.453950,40295,170
