#file number,time from start,flux,flux error
0,0.000000,49506,186
1,0.580900,52473,189
2,1.171483,50558,187
3,1.762350,46731,183
4,2.350067,39336,174
6,3.528350,43514,179
7,4.118917,54743,193
8,4.709850,50016,187
9,5.297517,53717,190
10,5.883667,59386,197
11,6.472683,55845,193
12,7.063050,59961,198
13,7.651283,60022,197
14,8.240817,58671,196
15,8.826933,61762,199
16,9.414633,66400,204
17,10.000217,74541,213
18,10.588467,78455,217
19,11.178283,83555,223
20,11.768633,85618,225
21,12.357633,85021,225
22,12.947183,88628,229
23,13.536750,90065,230
24,14.127117,90134,230
25,14.716683,93432,233
26,15.305650,96752,236
27,15.893333,99453,239
28,16.481017,109906,249
29,17.069733,110387,249
30,17.657400,110098,249
31,18.246383,110752,249
32,18.963183,107974,247
33,19.542300,108394,247
34,20.121417,111786,250
35,20.702033,110815,249
36,21.281367,109405,248
37,21.866733,108529,247
38,22.455500,103493,242
39,23.044483,111015,249
40,23.629567,112000,250
41,24.219300,112553,251
42,24.809417,113956,252
43,25.399717,116003,254
44,26.034267,116281,254
45,26.613667,116280,254
46,27.192900,116574,254
47,27.781217,117487,255
48,28.362850,117619,255
49,28.952217,116876,254
50,29.541800,115383,253
51,30.129867,114322,252
52,30.718650,112587,250
53,31.309017,112090,250
54,31.897783,110438,248
55,32.487883,108262,246
56,33.077717,108586,247
57,33.667233,112529,250
58,34.346283,113786,251
59,34.925467,116120,253
60,35.504500,117254,254
61,36.085150,118358,255
62,36.664350,119286,256
63,37.243633,119141,256
64,37.824833,120068,257
65,38.407800,121061,258
66,38.990250,121655,258
67,39.570583,122586,259
68,40.155100,121899,259
69,40.738550,123257,260
70,41.320967,122900,259
71,41.902617,123068,259
72,42.486883,121303,258
73,43.075900,121445,258
74,43.664933,117439,255
75,44.253167,116292,254
76,44.842117,116301,254
77,45.431617,118713,256
78,46.021917,122026,259
79,46.609367,121913,259
80,47.197833,121808,259
81,47.787350,122479,259
82,48.372517,121973,259
83,48.954417,121641,258
84,49.544400,120481,257
85,50.130500,120449,257
86,50.714483,121249,258
87,51.295900,121292,258
88,51.882217,122075,259
89,52.469833,122466,259
90,53.057983,122685,259
91,53.646133,122446,259
92,54.230633,122533,259
93,54.820850,123365,260
94,55.410567,123725,260
95,56.000283,123397,260
96,56.589200,123123,260
97,57.179950,124246,260
98,57.762617,123350,260
99,58.348433,123125,259
100,58.939450,123441,260
101,59.530450,123685,261
102,60.119900,121657,259
103,60.709600,122785,261
104,61.298283,124466,262
105,61.887983,118423,257
106,62.477967,114582,253
107,63.067150,123851,261
108,63.652950,125237,263
109,64.241083,124170,262
110,64.829483,121541,259
111,65.411133,111847,251
112,65.993283,112099,250
113,66.581433,119931,257
114,67.171133,118372,256
115,67.760050,116993,255
116,68.348200,113609,252
117,68.937900,119207,257
118,69.526567,118081,256
119,70.114200,121538,259
120,70.737483,120697,258
121,71.316767,121259,258
122,71.896067,118338,256
123,72.480050,119445,257
124,73.069233,116388,254
125,73.658667,110184,249
126,74.240833,107213,246
127,74.823517,96351,236
128,75.405417,79949,219
129,75.987817,64344,203
130,76.577017,42885,178
132,77.754350,39240,174
134,78.931417,51934,189
135,79.519817,65504,205
136,80.103017,75895,215
137,80.691933,75705,215
138,81.280867,47168,183
139,81.869267,60446,198
140,82.457417,70880,209
141,83.046333,80022,219
142,83.635000,82469,222
143,84.225750,82049,222
144,84.814933,96153,236
145,85.464783,114374,252
146,86.043817,116615,254
147,86.676217,114613,252
148,87.306800,115093,253
149,87.942850,115363,253
150,88.521883,117515,255
151,89.158983,118820,256
152,89.739050,118146,255
153,90.329283,120569,257
154,90.915083,123034,259
155,91.503750,123027,260
156,92.089283,80136,214
157,92.676917,121670,258
158,93.266100,123114,260
159,93.855550,114973,252
160,94.443700,111817,249
161,95.033667,109697,247
162,95.622850,77293,216
163,96.213867,48599,182
164,96.803567,42681,175
167,98.572167,26207,156
168,99.153533,20858,151
173,102.075767,43104,177
174,102.666000,62716,200
175,103.254400,72970,211
176,103.841767,96275,235
177,104.430683,105894,244
178,105.018833,113126,250
179,105.607750,114944,252
180,106.196417,122046,258
181,106.786917,122266,258
182,107.377400,123864,260
183,107.967133,122631,258
184,108.557867,124090,260
185,109.147833,123528,259
186,109.739367,122961,259
187,110.330383,122376,258
188,110.920100,122155,258
189,111.510583,120815,257
190,112.100033,119337,256
191,112.689733,114457,251
192,113.278417,110298,248
193,113.864750,107408,245
194,114.447417,108516,246
195,115.029850,113685,251
196,115.612267,117034,254
197,116.196250,120243,257
198,116.786217,122309,258
199,117.375150,123316,259
200,117.957033,124519,260
201,118.545433,126321,262
202,119.134883,125467,261
203,119.725117,126528,262
204,120.315600,126874,262
205,120.896467,125036,261
206,121.486167,124524,260
207,122.074850,125472,261
208,122.655950,125030,261
209,123.238117,124628,260
210,123.826517,124989,261
211,124.414667,121383,257
212,124.997083,123016,259
213,125.584950,122671,258
214,126.175700,121121,257
215,126.764100,120294,256
216,127.350683,119532,256
217,127.939367,119845,256
218,128.530633,120363,256
219,129.118533,121569,257
220,129.707200,120377,256
221,130.296900,118129,254
222,130.886600,115033,251
223,131.471367,116345,252
224,132.060017,118802,255
225,132.649483,119577,255
226,133.238133,100501,236
227,133.827067,73873,206
228,134.416500,90993,226
229,135.005167,119466,255
230,135.592533,119685,256
231,136.175983,120008,256
232,136.760483,113467,250
233,137.349417,113859,250
234,137.937817,107727,244
235,138.527783,110307,247
236,139.113850,112578,249
237,139.703567,113801,250
238,140.294317,119146,255
239,140.884550,116586,253
240,141.474250,118575,255
241,142.063967,115927,252
242,142.654717,113850,250
243,143.245200,110631,247
244,143.834900,110450,247
245,144.422017,106877,244
246,145.009383,100934,238
247,145.597250,101516,239
248,146.186183,95677,233
249,146.775367,88242,226
250,147.365600,77649,215
251,147.952950,71692,209
252,148.539800,69560,206
253,149.126117,74004,211
254,149.715817,70643,207
255,150.301100,63785,200
256,150.891333,59229,194
257,151.482083,57636,192
258,152.072567,53208,186
259,152.664617,49818,182
260,153.254050,50421,183
262,154.435817,41243,172
263,155.026567,37398,167
264,155.617317,40563,172
269,158.564550,38411,169
270,159.154783,41318,173
271,159.745000,46559,180
272,160.333917,50070,184
273,160.922333,48128,181
274,161.509967,41354,173
278,163.863317,16980,141
280,165.040383,13101,137
281,165.629050,13019,137
305,179.766633,19153,146
306,180.355300,23958,153
308,181.533400,36698,169
309,182.122067,43154,176
310,182.710983,51319,186
311,183.300967,58689,194
312,183.890400,57274,192
313,184.478550,46846,180
314,185.066950,70553,208
315,185.657183,80021,219
316,186.247667,80093,219
317,186.829033,66251,203
318,187.416150,60708,196
319,187.996233,62000,198
320,188.586467,55591,190
321,189.175917,57716,194
322,189.766150,59373,196
323,190.356117,50753,185
325,191.535267,12701,135
326,192.123933,15044,139
329,193.891233,61475,197
330,194.478600,68808,206
331,195.067767,50270,184
332,195.653833,38099,170
333,196.243283,50951,185
334,196.830383,49734,184
335,197.418800,66146,203
336,198.009283,61026,197
337,198.598717,59229,195
338,199.187400,62668,199
339,199.777617,61899,198
340,200.368383,58836,194
341,200.956250,53773,188
342,201.545967,49751,183
343,202.135933,44770,177
344,202.724867,56001,191
345,203.314300,66365,203
346,203.904550,60020,196
347,204.494500,57807,193
348,205.081350,68182,206
349,205.670533,81769,220
350,206.261283,88939,228
351,206.851783,89363,228
352,207.441500,97849,236
353,208.031467,84479,223
354,208.620133,93722,232
355,209.210100,94728,234
356,209.799817,90531,230
357,210.389783,92766,231
358,210.979233,91533,230
359,211.570250,91325,230
360,212.158650,91035,230
361,212.748867,94705,233
362,213.339383,97008,235
363,213.928833,95654,234
364,214.517767,104042,242
365,215.106183,98901,238
366,215.689133,96039,235
367,216.271550,92901,232
368,216.854500,71393,209
369,217.436133,45709,181
370,218.018033,45368,182
371,218.605650,70298,210
372,219.187817,37493,175
375,220.956967,39410,177
376,221.546933,27529,163
