#file number,time from start,flux,flux error
27,0.000000,16461,129
28,0.109717,16568,131
29,0.219183,16531,130
30,0.328650,16796,130
31,0.438100,16783,130
32,0.547567,16752,131
33,0.657017,16821,133
34,0.766217,16434,132
35,0.875417,16247,131
36,0.984367,16477,132
37,1.094083,16615,128
38,1.203033,16723,129
39,1.311700,16388,128
40,1.420650,16362,128
42,1.638533,16542,128
43,1.747200,16256,128
44,1.856400,16352,128
45,1.965600,16491,129
46,2.075067,16361,128
47,2.184000,16418,128
48,2.293467,17109,129
49,2.402933,16616,129
50,2.512133,16433,128
51,2.621850,16629,129
52,2.731300,16693,129
53,2.840767,16231,128
54,2.950233,16687,129
55,3.059950,16176,127
56,3.169150,16539,129
57,3.278617,16307,128
58,3.388333,16531,128
59,3.497783,16524,128
60,3.607517,16268,128
61,3.716967,16356,128
62,3.826167,16348,128
100,7.989567,16805,129
101,8.098767,16735,129
102,8.208483,16686,129
103,8.317950,16507,128
104,8.427417,16911,129
105,8.536617,15999,127
106,8.645550,17065,129
107,8.754500,16362,128
108,8.863433,16113,130
109,8.972367,16928,130
110,9.082350,16508,128
111,9.191550,16652,128
112,9.300750,16693,129
113,9.410217,16722,129
114,9.519417,16403,128
115,9.628867,16639,128
116,9.738600,16578,128
117,9.848317,16598,128
118,9.957000,16822,129
119,10.066967,16512,128
120,10.176950,16212,128
121,10.286417,16298,128
122,10.396133,16546,128
123,10.505067,16768,129
124,10.614533,16585,128
125,10.724250,16503,128
126,10.833717,16921,129
127,10.943433,16756,128
128,11.053150,16506,128
129,11.162883,16432,128
130,11.272600,16504,128
131,11.382050,16265,128
132,11.491517,16486,128
133,11.600983,16426,128
134,11.710433,16283,128
135,11.819900,16467,128
136,11.929350,16334,128
137,12.038817,16567,128
138,12.148533,16743,129
139,12.257733,16455,128
140,12.367200,17012,129
141,12.476917,16441,128
142,12.586383,16447,128
143,12.695833,16676,129
144,12.805567,16441,128
145,12.915017,16447,130
146,13.024217,16259,130
147,13.133683,16444,128
148,13.242883,16948,131
149,13.352333,16451,131
150,13.462067,16743,131
151,13.571267,16426,131
152,13.680983,16941,131
153,13.790433,16684,130
154,13.900683,16427,129
155,14.010400,16177,129
156,14.119600,16443,129
157,14.229317,16150,129
158,14.338783,17009,130
159,14.448500,16334,129
160,14.557967,16299,129
161,14.667167,16496,129
162,14.776617,16375,128
163,14.886350,16371,128
164,14.996067,16557,128
165,15.105517,16675,128
166,15.215250,16597,128
167,15.324700,16722,129
168,15.433900,16541,128
169,15.543367,16464,128
170,15.652817,16450,128
171,15.762283,16438,128
172,15.871750,16824,129
173,15.981200,16711,128
174,16.090667,16259,127
175,16.200383,16244,127
176,16.310100,16419,128
177,16.419300,13766,123
178,16.529033,16198,128
179,16.638233,16431,128
180,16.747683,16492,128
181,16.857400,16160,128
182,16.967650,16569,128
183,17.077100,16551,128
190,17.843850,16207,127
194,18.281683,16566,129
195,18.390633,16532,129
196,18.499567,16205,128
197,18.608767,16700,129
198,18.717967,16410,128
199,18.827167,16937,129
200,18.936117,16542,129
201,19.045050,16735,129
202,19.154767,16446,129
203,19.264233,16738,129
204,19.373433,16087,128
205,19.482883,16403,129
206,19.592350,16497,128
207,19.702067,16318,128
208,19.811533,16057,128
209,19.920733,17076,130
210,20.030200,17089,130
211,20.139650,16593,129
212,20.248850,16339,128
213,20.358317,16612,129
214,20.467767,16571,129
215,20.577233,16278,128
216,20.686700,16480,129
217,20.796150,16625,128
218,20.905617,16503,129
219,21.014817,16562,129
220,21.124267,16453,129
221,21.233467,16582,129
222,21.343200,16416,129
223,21.452650,16439,129
224,21.561850,16255,128
225,21.671317,16326,128
226,21.781033,16478,129
227,21.890500,16174,128
228,22.000217,16555,129
229,22.109933,15981,127
230,22.219400,16465,129
231,22.328850,16455,128
232,22.438317,16728,129
233,22.547517,16867,129
234,22.656983,16596,129
235,22.766700,16920,129
236,22.876150,16716,129
237,22.985883,16126,128
238,23.095333,16867,129
239,23.204800,16462,128
240,23.314000,16689,129
241,23.423717,16185,128
242,23.532917,16239,128
243,23.642383,16468,128
244,23.751833,16434,129
245,23.861300,16813,129
246,23.970767,16422,128
247,24.079967,16214,127
248,24.189167,16682,129
249,24.298617,16583,128
250,24.408083,16691,129
251,24.517283,16493,128
252,24.627000,16456,128
253,24.736467,16876,129
254,24.845667,16182,128
255,24.955117,16728,132
256,25.064583,16285,128
257,25.174033,16737,128
258,25.283500,16427,128
259,25.393217,16629,128
260,25.502683,16866,129
261,25.612133,16533,128
262,25.721867,16754,128
263,25.831067,16312,128
264,25.940517,16438,128
265,26.050250,16690,128
266,26.159183,16445,128
267,26.268650,16544,128
268,26.378367,16522,128
269,26.487567,16724,129
270,26.597283,16673,128
271,26.707000,16607,130
272,26.816200,16421,130
273,26.925667,16682,132
274,27.035383,16429,130
275,27.144583,16636,131
276,27.254300,15998,128
277,27.363767,16477,130
278,27.472967,16588,130
279,27.582417,16354,130
280,27.692150,16887,131
281,27.801350,16384,130
282,27.911067,16613,130
283,28.020783,16399,130
284,28.130250,16485,130
285,28.239967,16414,130
286,28.349433,16459,131
287,28.458633,16744,132
288,28.568083,16863,132
289,28.677283,16301,131
290,28.786483,16725,132
291,28.895950,16742,132
292,29.005667,16519,132
293,29.115133,16984,132
294,29.224850,16464,132
295,29.334567,16627,132
296,29.444283,16442,131
297,29.553483,16294,130
298,29.662950,16525,131
299,29.772667,16409,131
300,29.881867,17251,132
301,29.991333,16885,131
302,30.101050,16602,131
303,30.210767,16551,130
304,30.320233,16627,131
305,30.429950,16666,129
306,30.539417,16371,129
307,30.648617,16279,128
308,30.758333,16810,129
309,30.867783,16091,128
310,30.977250,16734,129
311,31.086450,16790,129
312,31.195917,16242,128
313,31.305367,16503,129
314,31.414833,16842,129
315,31.523767,16349,128
316,31.632450,16471,128
317,31.741650,16338,128
318,31.851367,16893,129
319,31.961100,16398,128
320,32.070550,16995,130
321,32.180017,16795,129
322,32.289733,16430,128
323,32.399717,16667,129
324,32.509433,16436,128
325,32.618900,16133,128
326,32.728350,16779,129
327,32.837817,16933,130
328,32.947267,16601,128
329,33.057000,16607,129
330,33.166450,16626,129
331,33.275917,16246,128
332,33.385117,16527,129
333,33.494583,16854,129
334,33.603783,16806,129
335,33.713233,16349,128
336,33.822183,16656,129
337,33.931117,17036,129
338,34.040317,16697,129
339,34.149783,16434,128
340,34.259500,16400,128
341,34.368950,16253,128
342,34.478150,16322,128
343,34.587617,16721,129
344,34.697083,16430,129
345,34.806800,16135,128
346,34.916517,16518,129
347,35.025717,16544,129
348,35.135183,16321,128
349,35.244633,16934,129
350,35.353833,16487,128
351,35.463300,16257,128
352,35.572767,16651,129
353,35.681967,16730,129
354,35.791417,16498,129
355,35.900883,16242,128
356,36.010333,16653,129
357,36.119800,17151,130
358,36.229517,16710,129
359,36.338717,16518,129
360,36.448433,16539,129
361,36.558167,17002,130
362,36.668133,16557,129
363,36.777333,16267,128
364,36.887067,16630,129
365,36.996783,16730,129
366,37.106250,16483,129
367,37.215700,16124,128
368,37.325417,16404,128
369,37.434617,16371,128
370,37.544083,16447,127
371,37.653800,16637,128
372,37.763267,16365,127
373,37.872717,16273,128
374,37.982450,16896,129
375,38.091900,16324,128
376,38.201367,16091,128
377,38.311083,16701,129
378,38.420283,16636,129
379,38.530000,16844,129
380,38.639467,16356,128
381,38.749183,16644,129
382,38.858650,16399,129
383,38.968367,16583,129
384,39.078083,16527,129
385,39.187550,16644,129
386,39.297267,16443,129
387,39.406983,16603,129
388,39.516700,16030,128
389,39.625900,16223,128
390,39.735633,16237,128
391,39.845083,16972,130
392,39.954283,16354,129
393,40.064000,16650,129
394,40.173467,16306,128
395,40.282933,16402,129
396,40.392383,16665,129
397,40.502100,16284,128
398,40.611567,16510,129
399,40.721283,16361,129
400,40.830750,16236,128
401,40.940217,16649,129
402,41.049667,16621,129
403,41.159383,16341,128
404,41.268583,16851,130
405,41.378050,16501,129
406,41.487517,16558,129
407,41.596967,16445,129
408,41.706433,16220,128
409,41.816150,16589,129
410,41.925617,16655,129
411,42.035067,16234,128
412,42.144533,16886,130
413,42.253467,16426,129
414,42.363183,16371,129
415,42.472917,16592,129
416,42.582367,16421,129
417,42.691833,16112,128
418,42.801550,15805,128
419,42.911267,16127,128
420,43.020467,16397,129
421,43.130200,16204,129
422,43.239917,16607,129
423,43.349367,16190,128
424,43.459100,16418,129
425,43.568300,16331,129
426,43.677750,16808,130
427,43.787217,16243,129
428,43.896667,16760,130
429,44.006133,16080,128
430,44.115333,16430,129
431,44.225050,16564,129
432,44.334250,16641,129
433,44.443967,16658,129
434,44.553700,16284,129
435,44.663150,16517,129
436,44.772617,16318,129
437,44.882333,16514,129
438,44.991800,16395,129
439,45.101517,16336,129
440,45.210983,16373,129
441,45.320700,16639,129
442,45.430150,16298,129
443,45.539883,16080,129
444,45.649600,16482,129
445,45.759050,16441,129
446,45.868517,16283,129
447,45.978233,16401,129
448,46.087950,16438,129
449,46.197417,16756,130
450,46.307133,16389,129
451,46.416850,16527,129
452,46.526050,16433,129
453,46.635517,16412,129
454,46.745233,16417,129
455,46.854700,16070,129
456,46.964167,16326,129
457,47.073617,16548,129
458,47.183083,16263,129
459,47.292533,16303,129
460,47.402000,16542,129
461,47.511200,16668,130
462,47.620917,16911,130
463,47.730383,16635,130
464,47.839833,16243,129
465,47.949300,16790,130
466,48.058767,16354,129
467,48.167967,16651,129
468,48.277683,16453,129
469,48.387133,16862,129
470,48.496600,16688,129
471,48.606317,16935,130
472,48.715783,16785,130
473,48.824983,16521,129
474,48.934700,16418,129
475,49.043900,16375,129
476,49.153367,16588,129
477,49.262817,16203,129
478,49.372800,15758,128
479,49.482517,16596,129
480,49.591717,16183,129
481,49.701450,16756,130
482,49.810900,16600,130
483,49.920100,17299,131
484,50.029817,16507,129
485,50.139800,16801,130
486,50.249267,16278,129
487,50.358983,16586,130
488,50.468450,16412,129
489,50.577650,16573,130
490,50.687100,15911,129
491,50.796567,16700,130
492,50.906033,16708,130
493,51.015483,16644,130
494,51.124950,16705,130
495,51.234150,16488,129
496,51.343867,16432,129
497,51.453333,16641,130
498,51.562783,16714,130
499,51.672500,16407,129
500,51.781967,16272,129
501,51.891433,16139,129
502,52.000633,16377,129
503,52.110350,16970,130
504,52.219550,16357,129
505,52.328750,16405,129
506,52.438467,16344,129
507,52.547667,16626,129
508,52.656867,15988,128
509,52.766333,16345,129
510,52.876050,16635,129
511,52.985767,16642,129
512,53.095483,16474,129
513,53.205217,16714,129
514,53.314417,16977,130
515,53.424133,16932,130
516,53.533583,16498,129
517,53.643050,16813,129
518,53.752767,16451,129
519,53.862483,16622,129
520,53.971950,16413,129
521,54.081417,16629,129
522,54.190867,16597,129
523,54.300333,16885,130
524,54.410050,16582,129
525,54.519517,16781,130
526,54.628967,16616,129
527,54.738433,16654,129
528,54.848150,16148,128
529,54.957867,16489,129
530,55.067067,16432,129
531,55.176800,16287,129
532,55.286250,16052,128
533,55.395967,16517,129
534,55.505433,16839,130
535,55.615150,16355,129
536,55.724350,16919,130
537,55.834067,16778,130
538,55.943800,16770,130
539,56.053250,16376,129
540,56.162983,16446,129
541,56.272433,16232,129
542,56.382150,16701,130
543,56.491617,16111,129
544,56.601333,16791,130
545,56.711050,16913,130
546,56.820783,16374,129
547,56.930500,16273,129
548,57.039950,16620,130
549,57.149683,16678,130
550,57.259133,15829,128
551,57.368850,16462,128
552,57.478583,16344,129
553,57.588033,16332,129
554,57.697233,16341,129
555,57.806700,16372,129
556,57.916417,12903,122
557,58.025883,16777,130
558,58.135600,16635,130
559,58.245067,16437,130
560,58.354517,16284,129
561,58.463983,16368,130
562,58.573433,16482,130
563,58.682633,16564,130
564,58.792367,16340,129
565,58.901567,16569,130
566,59.011017,16910,130
567,59.120733,16423,130
568,59.229933,16740,130
569,59.339400,16373,129
570,59.449117,16545,130
571,59.558583,16769,130
572,59.668033,16428,130
573,59.777767,16105,129
574,59.886967,16618,130
575,59.996417,16970,131
576,60.105883,16343,130
577,60.215600,16076,129
578,60.325067,16378,130
579,60.434267,16301,130
580,60.543467,16579,130
581,60.652667,16580,130
582,60.762117,16898,131
583,60.871583,9646,116
584,60.980783,16473,130
585,61.089983,12155,121
586,61.199450,16104,131
587,61.308650,16419,135
588,61.418367,16264,135
589,61.527817,16795,130
590,61.637550,16726,130
591,61.747267,16458,130
592,61.856733,16523,130
593,61.965933,16345,130
594,62.075133,16797,131
595,62.184583,16616,130
596,62.293533,16736,130
597,62.402983,16036,129
598,62.512450,15785,129
599,62.621650,16383,130
600,62.731367,16313,130
601,62.840300,16107,129
602,62.948983,16514,130
603,63.057933,16623,130
604,63.166600,16703,130
605,63.275550,16465,130
606,63.385000,16228,129
607,63.494200,16352,130
608,63.603150,16486,130
609,63.712350,16446,130
610,63.821550,16354,130
611,63.930483,16357,130
612,64.039433,16434,130
613,64.149417,16476,130
614,64.258350,16663,130
615,64.367283,16543,130
616,64.476750,16629,130
617,64.586217,16452,130
618,64.695417,16822,130
619,64.804617,16441,131
620,64.914067,16512,131
621,65.023783,16625,131
622,65.132983,16480,132
623,65.241933,16089,131
624,65.351650,16408,130
625,65.460850,16446,131
626,65.569800,16833,130
627,65.678733,16555,130
628,65.788200,16734,130
629,65.897650,16879,130
630,66.007117,16295,129
631,66.116567,16246,129
632,66.226300,12153,121
633,66.336017,11208,122
634,66.445733,16355,133
635,66.555450,16339,138
636,66.665167,15427,130
637,66.774367,16107,138
638,66.883833,16288,135
639,66.993300,15883,133
640,67.102750,16505,130
641,67.212467,16196,129
642,67.321933,16525,130
643,67.431400,16390,130
644,67.540850,16367,130
645,67.650583,16484,130
646,67.759783,16481,130
647,67.869500,16863,130
648,67.978950,16754,130
649,68.088683,16398,129
650,68.198133,16429,129
651,68.307850,6213,108
652,68.417050,16460,130
653,68.526517,16316,130
654,68.636233,16709,134
655,68.745950,16530,130
656,68.855150,16162,129
657,68.964617,16353,129
658,69.074333,16334,129
659,69.183533,16708,130
660,69.293250,16232,129
661,69.402983,16445,130
662,69.512183,16269,129
663,69.621633,16577,130
664,69.731100,16180,129
665,69.840300,16569,130
666,69.949767,16481,130
667,70.059483,16411,130
668,70.168933,16539,130
669,70.278400,16240,130
670,70.388117,16304,130
671,70.497317,16485,130
672,70.607033,16292,130
673,70.716500,17032,131
674,70.826217,16612,130
675,70.935417,16410,130
676,71.044883,16439,130
677,71.154600,16670,130
678,71.264067,16534,130
679,71.373783,16489,130
680,71.483500,16629,130
681,71.592967,16413,130
682,71.702167,16532,130
683,71.811883,16262,130
684,71.921350,16515,130
685,72.031067,16209,130
686,72.140783,16542,131
687,72.250500,16419,131
688,72.359967,16448,131
689,72.469417,16304,130
690,72.579150,16555,131
691,72.688600,16440,131
692,72.798067,16094,130
693,72.907783,16150,130
694,73.017250,16608,131
695,73.126450,16375,130
696,73.236167,16238,130
697,73.345633,16530,131
698,73.455083,16134,130
699,73.564800,16364,130
700,73.674783,16501,131
701,73.783983,16532,131
702,73.893450,16253,130
703,74.003167,16216,130
704,74.112100,16611,131
705,74.221300,16392,131
706,74.330767,16229,130
707,74.439967,16113,130
708,74.549167,16425,131
709,74.658367,16437,131
710,74.767567,16225,130
711,74.876767,16072,130
712,74.985967,16191,130
713,75.095167,16028,130
714,75.204633,16788,131
715,75.313833,16531,131
716,75.423550,16358,130
717,75.533017,16485,131
718,75.642733,16807,131
719,75.752183,16180,130
720,75.861650,16573,131
721,75.970850,16443,131
722,76.080567,16356,131
723,76.190033,16037,130
724,76.299483,16224,130
725,76.409217,15891,130
726,76.518667,16125,130
727,76.628383,16084,130
728,76.738117,16521,131
729,76.847833,16507,131
730,76.957033,16319,131
731,77.066500,15927,130
732,77.176217,16606,131
733,77.285933,16345,131
734,77.395400,16442,131
735,77.505117,16969,132
736,77.614567,16812,132
737,77.724300,16639,131
738,77.834017,16761,132
739,77.943467,16352,131
740,78.052933,16486,131
741,78.162400,16381,131
742,78.272117,16578,131
743,78.381567,16394,131
744,78.490767,16710,131
745,78.600500,16815,132
746,78.709950,15984,130
747,78.819667,16020,130
748,78.929133,16301,131
749,79.038600,15904,130
750,79.148317,16343,131
751,79.258033,16080,130
752,79.367750,16566,131
753,79.477217,16401,131
754,79.586933,16259,131
755,79.696650,16305,131
756,79.806117,16308,131
757,79.915583,16447,131
758,80.025033,15207,129
759,80.134500,16013,130
760,80.243950,16190,130
761,80.353417,16003,130
762,80.462883,16185,131
763,80.572333,16537,131
764,80.682050,16282,131
765,80.791517,16218,131
766,80.900983,16416,131
767,81.010433,16147,130
768,81.119900,16308,131
769,81.229367,10011,118
770,81.339083,16322,131
771,81.448800,16165,130
772,81.558267,16475,131
773,81.667983,16222,130
774,81.777433,16556,131
775,81.886900,16407,131
776,81.996100,16415,131
777,82.105817,16742,132
778,82.215283,16340,131
779,82.324733,16418,131
780,82.434467,16194,130
781,82.543917,15936,130
782,82.653383,16204,131
783,82.763100,16442,131
784,82.872567,16402,131
785,82.982017,16497,131
786,83.091483,16518,132
787,83.200950,16107,131
788,83.310667,16398,131
789,83.420383,16347,131
790,83.530100,15946,131
791,83.639817,16263,131
792,83.749283,15959,131
793,83.859267,14757,130
794,83.968983,16453,132
795,84.078183,16023,131
796,84.187383,15900,131
797,84.296850,16030,131
798,84.406300,16436,131
799,84.516017,16259,131
800,84.625483,16766,132
801,84.734950,10070,119
802,84.844400,16270,131
803,84.953867,16348,132
804,85.063067,16454,132
805,85.172783,16072,131
806,85.282250,16061,131
807,85.391450,16290,132
808,85.501167,16378,132
809,85.610883,16026,131
810,85.720083,16312,132
811,85.829800,16394,131
812,85.939533,16618,132
813,86.048983,16416,132
814,86.158450,16406,132
815,86.267900,16266,132
816,86.377367,16269,132
817,86.486833,16150,132
818,86.596550,16231,131
819,86.706017,16442,132
820,86.815467,16446,131
821,86.924933,16574,132
822,87.034383,16204,131
823,87.143583,16299,131
824,87.253317,15898,131
825,87.362250,16969,133
826,87.471717,16425,132
827,87.581167,15886,131
828,87.690367,16262,131
829,87.799833,16287,131
830,87.908767,16277,131
831,88.017717,16218,131
832,88.127433,16476,132
833,88.236883,16504,132
834,88.346350,16393,132
835,88.456600,16110,131
836,88.566567,16469,132
837,88.676300,16493,132
838,88.785500,16559,132
839,88.895217,16153,132
840,89.004667,16160,131
841,89.114133,16220,132
842,89.223850,16634,132
843,89.333567,16403,132
844,89.443300,16014,131
845,89.552750,16509,131
846,89.662467,16224,130
847,89.771933,16105,130
848,89.881400,16479,131
849,89.991117,16633,131
850,90.100050,16291,131
851,90.209767,16810,131
852,90.319233,16241,130
853,90.428700,16641,131
854,90.538417,16412,131
855,90.647883,16698,131
856,90.757333,16443,131
857,90.867050,16144,130
858,90.976517,15992,130
859,91.085717,16257,130
860,91.195433,16433,131
861,91.305150,16408,131
862,91.414883,16629,131
863,91.524083,16619,131
864,91.633800,16434,131
865,91.743517,16546,131
866,91.852983,16449,131
867,91.962433,16119,130
868,92.071900,16480,131
869,92.181367,16501,131
870,92.291083,15872,130
871,92.400800,16034,130
872,92.510517,16395,131
873,92.619983,16026,130
874,92.729700,16175,130
875,92.839417,16209,131
876,92.948883,16163,130
877,93.057817,16255,131
878,93.167283,16362,131
879,93.276733,16227,131
880,93.386200,16417,131
881,93.495917,15800,130
882,93.605383,16259,131
883,93.714833,16379,131
884,93.824567,15991,130
885,93.933767,16491,131
886,94.044000,16186,131
887,94.153467,15965,130
888,94.263183,16092,130
889,94.372900,16544,131
890,94.482100,16186,130
891,94.591817,16131,130
892,94.701283,16228,131
893,94.810750,16364,131
894,94.920467,15683,130
895,95.029917,16434,131
896,95.139117,16829,132
897,95.248850,16165,131
898,95.358050,16484,131
899,95.467250,16116,131
900,95.576967,16361,131
901,95.686417,16275,131
902,95.795883,16249,131
903,95.905350,15870,130
904,96.014550,16357,131
905,96.124533,16535,131
906,96.234250,16686,132
907,96.343967,16623,131
908,96.453950,16138,130
