#file number,time from start,flux,flux error
27,0.000000,16335,129
28,0.109717,16400,131
29,0.219183,16466,130
30,0.328650,16922,131
31,0.438100,16577,130
32,0.547567,16991,132
33,0.657017,16474,133
34,0.766217,16579,132
35,0.875417,16438,131
36,0.984367,16801,132
37,1.094083,16299,128
38,1.203033,16372,128
39,1.311700,16871,129
40,1.420650,16680,129
42,1.638533,16225,128
43,1.747200,16585,128
44,1.856400,16235,128
45,1.965600,16590,129
46,2.075067,16507,129
47,2.184000,16382,128
48,2.293467,16978,129
49,2.402933,16528,128
50,2.512133,16663,128
51,2.621850,16329,128
52,2.731300,15987,127
53,2.840767,16578,128
54,2.950233,16514,128
55,3.059950,16699,129
56,3.169150,16590,129
57,3.278617,16220,128
58,3.388333,16456,128
59,3.497783,16494,128
60,3.607517,16557,128
61,3.716967,16695,128
62,3.826167,16717,129
100,7.989567,16884,129
101,8.098767,16371,128
102,8.208483,16057,128
103,8.317950,16558,128
104,8.427417,17004,129
105,8.536617,16809,129
106,8.645550,16072,127
107,8.754500,16470,128
108,8.863433,16747,132
109,8.972367,16533,129
110,9.082350,16440,128
111,9.191550,16455,128
112,9.300750,16736,128
113,9.410217,16528,128
114,9.519417,16486,128
115,9.628867,16392,128
116,9.738600,16349,128
117,9.848317,16857,129
118,9.957000,16387,128
119,10.066967,16554,128
120,10.176950,16535,128
121,10.286417,16356,128
122,10.396133,16480,128
123,10.505067,16316,128
124,10.614533,16382,128
125,10.724250,16337,128
126,10.833717,16446,128
127,10.943433,16326,128
128,11.053150,16710,128
129,11.162883,16750,129
130,11.272600,16593,128
131,11.382050,16625,128
132,11.491517,16140,127
133,11.600983,16608,128
134,11.710433,16203,128
135,11.819900,16762,129
136,11.929350,16390,128
137,12.038817,16337,128
138,12.148533,16463,128
139,12.257733,16313,128
140,12.367200,16518,128
141,12.476917,16463,128
142,12.586383,16323,128
143,12.695833,16203,128
144,12.805567,16508,128
145,12.915017,16380,129
146,13.024217,16853,131
147,13.133683,16931,129
148,13.242883,16651,131
149,13.352333,16499,131
150,13.462067,16817,131
151,13.571267,16778,132
152,13.680983,16520,130
153,13.790433,16583,130
154,13.900683,16608,129
155,14.010400,16664,130
156,14.119600,16575,129
157,14.229317,16452,130
158,14.338783,16396,129
159,14.448500,16294,129
160,14.557967,16598,130
161,14.667167,16477,129
162,14.776617,16450,128
163,14.886350,16537,128
164,14.996067,16113,128
165,15.105517,16329,128
166,15.215250,16623,128
167,15.324700,16647,129
168,15.433900,16109,128
169,15.543367,16372,128
170,15.652817,16386,128
171,15.762283,16477,128
172,15.871750,16433,128
173,15.981200,16401,128
174,16.090667,16290,128
175,16.200383,15793,127
176,16.310100,16587,128
177,16.419300,10334,116
178,16.529033,16737,129
179,16.638233,16313,128
180,16.747683,16597,128
181,16.857400,16183,128
182,16.967650,16423,128
183,17.077100,16600,128
190,17.843850,453,92
194,18.281683,201,71
195,18.390633,733,72
196,18.499567,1453,81
197,18.608767,1625,80
198,18.717967,1497,80
199,18.827167,2012,87
200,18.936117,2078,89
201,19.045050,2196,90
202,19.154767,2202,97
203,19.264233,2135,96
204,19.373433,6658,92
205,19.482883,2225,97
206,19.592350,2170,97
207,19.702067,5713,89
208,19.811533,5490,90
209,19.920733,10069,101
210,20.030200,11830,106
211,20.139650,13369,116
212,20.248850,15911,122
213,20.358317,16347,124
214,20.467767,16341,125
215,20.577233,16205,127
216,20.686700,16079,128
217,20.796150,16374,128
218,20.905617,16273,128
219,21.014817,15885,128
220,21.124267,16119,128
221,21.233467,16305,128
222,21.343200,16731,129
223,21.452650,16147,128
224,21.561850,16708,129
225,21.671317,16069,128
226,21.781033,16388,129
227,21.890500,16322,128
228,22.000217,16651,129
229,22.109933,15998,127
230,22.219400,16590,129
231,22.328850,16208,128
232,22.438317,16582,129
233,22.547517,16197,128
234,22.656983,16134,128
235,22.766700,15968,128
236,22.876150,16177,128
237,22.985883,16190,128
238,23.095333,16264,128
239,23.204800,16566,129
240,23.314000,16355,128
241,23.423717,16401,128
242,23.532917,16300,128
243,23.642383,16268,128
244,23.751833,16439,129
245,23.861300,16466,128
246,23.970767,16923,129
247,24.079967,16496,128
248,24.189167,16622,129
249,24.298617,16637,128
250,24.408083,16463,128
251,24.517283,16787,129
252,24.627000,16514,128
253,24.736467,16448,128
254,24.845667,16258,128
255,24.955117,16641,131
256,25.064583,16629,129
257,25.174033,16484,128
258,25.283500,16389,127
259,25.393217,16853,129
260,25.502683,16437,128
261,25.612133,16144,127
262,25.721867,16869,129
263,25.831067,16704,128
264,25.940517,16419,128
265,26.050250,16641,128
266,26.159183,16524,128
267,26.268650,16320,128
268,26.378367,16127,127
269,26.487567,16825,129
270,26.597283,16351,128
271,26.707000,16840,130
272,26.816200,16179,129
273,26.925667,16278,131
274,27.035383,16607,131
275,27.144583,16687,131
276,27.254300,16468,129
277,27.363767,16059,129
278,27.472967,16311,129
279,27.582417,16232,130
280,27.692150,16433,130
281,27.801350,16804,131
282,27.911067,16768,130
283,28.020783,16682,131
284,28.130250,16373,129
285,28.239967,16595,131
286,28.349433,16491,131
287,28.458633,16869,132
288,28.568083,16547,132
289,28.677283,16740,132
290,28.786483,16559,132
291,28.895950,16565,132
292,29.005667,16263,131
293,29.115133,16231,131
294,29.224850,3966,86
295,29.334567,4578,87
296,29.444283,5767,90
297,29.553483,6807,93
298,29.662950,11418,106
299,29.772667,14036,115
300,29.881867,16174,126
301,29.991333,16383,128
302,30.101050,16439,129
303,30.210767,16697,130
304,30.320233,16645,131
305,30.429950,16555,129
306,30.539417,16623,129
307,30.648617,16535,129
308,30.758333,16659,129
309,30.867783,16907,129
310,30.977250,16718,129
311,31.086450,16473,129
312,31.195917,16487,129
313,31.305367,16459,129
314,31.414833,16615,129
315,31.523767,16553,129
316,31.632450,16370,128
317,31.741650,16010,128
318,31.851367,16308,128
319,31.961100,16178,128
320,32.070550,16691,129
321,32.180017,16757,129
322,32.289733,16394,128
323,32.399717,16021,128
324,32.509433,15880,127
325,32.618900,16519,129
326,32.728350,16337,128
327,32.837817,16216,128
328,32.947267,16167,128
329,33.057000,16319,128
330,33.166450,16516,129
331,33.275917,16608,129
332,33.385117,16108,128
333,33.494583,16819,129
334,33.603783,16425,129
335,33.713233,16464,128
336,33.822183,16733,129
337,33.931117,16743,129
338,34.040317,16149,128
339,34.149783,16428,128
340,34.259500,16485,128
341,34.368950,16384,128
342,34.478150,16027,128
343,34.587617,16287,128
344,34.697083,16744,129
345,34.806800,15934,128
346,34.916517,16403,128
347,35.025717,16193,128
348,35.135183,16718,129
349,35.244633,16746,129
350,35.353833,16621,129
351,35.463300,16526,129
352,35.572767,16002,128
353,35.681967,16476,129
354,35.791417,16188,128
355,35.900883,16603,129
356,36.010333,16497,129
357,36.119800,16384,128
358,36.229517,16027,128
359,36.338717,16669,129
360,36.448433,16198,128
361,36.558167,16262,128
362,36.668133,16533,128
363,36.777333,16559,129
364,36.887067,16485,128
365,36.996783,16880,129
366,37.106250,16357,128
367,37.215700,16165,128
368,37.325417,16419,128
369,37.434617,16414,128
370,37.544083,16229,127
371,37.653800,16590,128
372,37.763267,16472,127
373,37.872717,16287,128
374,37.982450,16806,129
375,38.091900,16593,129
376,38.201367,16656,129
377,38.311083,16491,129
378,38.420283,16568,129
379,38.530000,16629,129
380,38.639467,16044,128
381,38.749183,15951,128
382,38.858650,16721,129
383,38.968367,1954,96
384,39.078083,2113,97
385,39.187550,2116,97
386,39.297267,3216,81
387,39.406983,5895,89
388,39.516700,6584,91
389,39.625900,11296,105
390,39.735633,13389,111
391,39.845083,14544,115
392,39.954283,15345,118
393,40.064000,15865,122
394,40.173467,15874,122
395,40.282933,15895,125
396,40.392383,16173,128
397,40.502100,16300,128
398,40.611567,16243,128
399,40.721283,16155,128
400,40.830750,16121,128
401,40.940217,16349,128
402,41.049667,16306,128
403,41.159383,16464,129
404,41.268583,16350,129
405,41.378050,16110,128
406,41.487517,16606,129
407,41.596967,16555,129
408,41.706433,16385,129
409,41.816150,16449,129
410,41.925617,16536,129
411,42.035067,16533,129
412,42.144533,16160,128
413,42.253467,16295,128
414,42.363183,16185,128
415,42.472917,16206,128
416,42.582367,16163,128
417,42.691833,16162,128
418,42.801550,16081,128
419,42.911267,16304,129
420,43.020467,16467,129
421,43.130200,16050,128
422,43.239917,16471,129
423,43.349367,16419,129
424,43.459100,15973,128
425,43.568300,16656,129
426,43.677750,16348,129
427,43.787217,16613,130
428,43.896667,16299,129
429,44.006133,16382,129
430,44.115333,16277,129
431,44.225050,16468,129
432,44.334250,16937,130
433,44.443967,16714,129
434,44.553700,16670,129
435,44.663150,16562,129
436,44.772617,16550,129
437,44.882333,16338,129
438,44.991800,16545,129
439,45.101517,16289,129
440,45.210983,16563,129
441,45.320700,16612,129
442,45.430150,16282,129
443,45.539883,16140,129
444,45.649600,16462,129
445,45.759050,16255,129
446,45.868517,16582,129
447,45.978233,16678,130
448,46.087950,16088,128
449,46.197417,15855,128
450,46.307133,16779,125
451,46.416850,16280,125
452,46.526050,15993,128
453,46.635517,16704,130
454,46.745233,16566,129
455,46.854700,16205,129
456,46.964167,15809,128
457,47.073617,16173,129
458,47.183083,16385,128
459,47.292533,16231,129
460,47.402000,16317,129
461,47.511200,16344,129
462,47.620917,16076,129
463,47.730383,16527,129
464,47.839833,16466,129
465,47.949300,16278,129
466,48.058767,16736,129
467,48.167967,16311,128
468,48.277683,16550,129
469,48.387133,16140,128
470,48.496600,16337,128
471,48.606317,16623,129
472,48.715783,16636,129
473,48.824983,16652,129
474,48.934700,16121,128
475,49.043900,16370,129
476,49.153367,15923,128
477,49.262817,16368,129
478,49.372800,16055,128
479,49.482517,16100,128
480,49.591717,16112,129
481,49.701450,16051,128
482,49.810900,16404,129
483,49.920100,16355,129
484,50.029817,16334,129
485,50.139800,16818,130
486,50.249267,16423,129
487,50.358983,16597,130
488,50.468450,16289,129
489,50.577650,16205,129
490,50.687100,16597,130
491,50.796567,15989,128
492,50.906033,15982,128
493,51.015483,16545,130
494,51.124950,16955,130
495,51.234150,16508,130
496,51.343867,16786,130
497,51.453333,16438,129
498,51.562783,16267,129
499,51.672500,17070,131
500,51.781967,16401,129
501,51.891433,16867,130
502,52.000633,15959,128
503,52.110350,16619,130
504,52.219550,16174,129
505,52.328750,16049,129
506,52.438467,16128,129
507,52.547667,15990,128
508,52.656867,16268,129
509,52.766333,16720,129
510,52.876050,16745,129
511,52.985767,16602,129
512,53.095483,16347,128
513,53.205217,16477,129
514,53.314417,16049,128
515,53.424133,16609,129
516,53.533583,16745,129
517,53.643050,16371,128
518,53.752767,16083,128
519,53.862483,16311,129
520,53.971950,16508,129
521,54.081417,16006,128
522,54.190867,16405,129
523,54.300333,16843,130
524,54.410050,16266,129
525,54.519517,16615,129
526,54.628967,16229,129
527,54.738433,16346,129
528,54.848150,16896,130
529,54.957867,15892,128
530,55.067067,16730,129
531,55.176800,16053,128
532,55.286250,16267,129
533,55.395967,16322,129
534,55.505433,16594,129
535,55.615150,16203,129
536,55.724350,16688,130
537,55.834067,16469,129
538,55.943800,16773,130
539,56.053250,16463,129
540,56.162983,16423,129
541,56.272433,16423,129
542,56.382150,16344,129
543,56.491617,16206,129
544,56.601333,16700,129
545,56.711050,16559,129
546,56.820783,16813,130
547,56.930500,16644,130
548,57.039950,16311,129
549,57.149683,15720,128
550,57.259133,16793,130
551,57.368850,16932,129
552,57.478583,16668,129
553,57.588033,16327,129
554,57.697233,16596,130
555,57.806700,15758,128
556,57.916417,13301,123
557,58.025883,16566,130
558,58.135600,16386,129
559,58.245067,16387,129
560,58.354517,16631,130
561,58.463983,16734,130
562,58.573433,16167,129
563,58.682633,15934,129
564,58.792367,16090,129
565,58.901567,16789,130
566,59.011017,16643,130
567,59.120733,16221,129
568,59.229933,16814,130
569,59.339400,16750,130
570,59.449117,16697,130
571,59.558583,16262,129
572,59.668033,16754,130
573,59.777767,16124,129
574,59.886967,16586,130
575,59.996417,16500,130
576,60.105883,16746,130
577,60.215600,16115,130
578,60.325067,16720,130
579,60.434267,16593,130
580,60.543467,16490,130
581,60.652667,16387,130
582,60.762117,16378,130
583,60.871583,9943,117
584,60.980783,16470,130
585,61.089983,12761,123
586,61.199450,15557,130
587,61.308650,16567,135
588,61.418367,16545,135
589,61.527817,16397,130
590,61.637550,16648,130
591,61.747267,16779,130
592,61.856733,15792,129
593,61.965933,16433,130
594,62.075133,16113,129
595,62.184583,16501,130
596,62.293533,16276,129
597,62.402983,16391,130
598,62.512450,16397,130
599,62.621650,16607,130
600,62.731367,15918,129
601,62.840300,15881,129
602,62.948983,16821,130
603,63.057933,16682,130
604,63.166600,16581,130
605,63.275550,16945,131
606,63.385000,16414,130
607,63.494200,16463,130
608,63.603150,16439,130
609,63.712350,16701,130
610,63.821550,16161,129
611,63.930483,16543,130
612,64.039433,16424,130
613,64.149417,16790,131
614,64.258350,16770,130
615,64.367283,16010,129
616,64.476750,16294,130
617,64.586217,16201,129
618,64.695417,16824,130
619,64.804617,16568,131
620,64.914067,16343,131
621,65.023783,16574,131
622,65.132983,16478,132
623,65.241933,16137,131
624,65.351650,16691,131
625,65.460850,16730,132
626,65.569800,16367,129
627,65.678733,16536,130
628,65.788200,16917,130
629,65.897650,16801,130
630,66.007117,16241,129
631,66.116567,16304,129
632,66.226300,11804,121
633,66.336017,10578,121
634,66.445733,16609,133
635,66.555450,16193,137
636,66.665167,15199,129
637,66.774367,16168,138
638,66.883833,16001,134
639,66.993300,15786,133
640,67.102750,16610,130
641,67.212467,16609,130
642,67.321933,16437,130
643,67.431400,16197,129
644,67.540850,16378,130
645,67.650583,16400,130
646,67.759783,16257,129
647,67.869500,16488,129
648,67.978950,16359,129
649,68.088683,16152,129
650,68.198133,15861,128
651,68.307850,7288,111
652,68.417050,16368,128
653,68.526517,16149,129
654,68.636233,16048,126
655,68.745950,16054,126
656,68.855150,13388,111
657,68.964617,12441,109
658,69.074333,2210,99
659,69.183533,5702,89
660,69.293250,6879,93
661,69.402983,6401,92
662,69.512183,9863,102
663,69.621633,12985,110
664,69.731100,13713,113
665,69.840300,15623,119
666,69.949767,15577,121
667,70.059483,16162,125
668,70.168933,16079,127
669,70.278400,16318,127
670,70.388117,16346,129
671,70.497317,15918,129
672,70.607033,16137,130
673,70.716500,16046,129
674,70.826217,15909,129
675,70.935417,15997,129
676,71.044883,16077,129
677,71.154600,16331,130
678,71.264067,16998,131
679,71.373783,16334,130
680,71.483500,16374,130
681,71.592967,16645,130
682,71.702167,16256,130
683,71.811883,16239,130
684,71.921350,16462,130
685,72.031067,15848,129
686,72.140783,16218,130
687,72.250500,16338,130
688,72.359967,16399,131
689,72.469417,16369,131
690,72.579150,16411,130
691,72.688600,16380,131
692,72.798067,16168,130
693,72.907783,16441,131
694,73.017250,16297,130
695,73.126450,16472,131
696,73.236167,16420,130
697,73.345633,16508,131
698,73.455083,16078,130
699,73.564800,16364,130
700,73.674783,16181,130
701,73.783983,16377,130
702,73.893450,16542,131
703,74.003167,16290,130
704,74.112100,16458,131
705,74.221300,16363,131
706,74.330767,16212,130
707,74.439967,16330,131
708,74.549167,16444,131
709,74.658367,16734,131
710,74.767567,16226,130
711,74.876767,16500,131
712,74.985967,16321,131
713,75.095167,16544,131
714,75.204633,16179,130
715,75.313833,16177,130
716,75.423550,16173,130
717,75.533017,16335,130
718,75.642733,16266,130
719,75.752183,16200,130
720,75.861650,16371,131
721,75.970850,16323,130
722,76.080567,16196,130
723,76.190033,16327,131
724,76.299483,16533,131
725,76.409217,16321,130
726,76.518667,15927,130
727,76.628383,16315,131
728,76.738117,16134,130
729,76.847833,16029,130
730,76.957033,16705,131
731,77.066500,16022,130
732,77.176217,16168,130
733,77.285933,16288,131
734,77.395400,16094,130
735,77.505117,16392,131
736,77.614567,16181,130
737,77.724300,16500,131
738,77.834017,16184,130
739,77.943467,15685,129
740,78.052933,16672,131
741,78.162400,16629,131
742,78.272117,16606,131
743,78.381567,16461,131
744,78.490767,16214,130
745,78.600500,16229,130
746,78.709950,16058,130
747,78.819667,16461,131
748,78.929133,16208,131
749,79.038600,16296,131
750,79.148317,16101,130
751,79.258033,15980,130
752,79.367750,16417,131
753,79.477217,16183,131
754,79.586933,16448,131
755,79.696650,16436,131
756,79.806117,16586,132
757,79.915583,16218,131
758,80.025033,15470,129
759,80.134500,16313,131
760,80.243950,16419,131
761,80.353417,16405,131
762,80.462883,15708,130
763,80.572333,15873,130
764,80.682050,15737,130
765,80.791517,16131,130
766,80.900983,15725,130
767,81.010433,16393,131
768,81.119900,16483,131
769,81.229367,9280,117
770,81.339083,16194,131
771,81.448800,16742,132
772,81.558267,16300,131
773,81.667983,16199,130
774,81.777433,16399,131
775,81.886900,16270,131
776,81.996100,16534,131
777,82.105817,16527,131
778,82.215283,16265,131
779,82.324733,15950,130
780,82.434467,16260,131
781,82.543917,16318,131
782,82.653383,16296,131
783,82.763100,16260,131
784,82.872567,15956,130
785,82.982017,16143,131
786,83.091483,16458,132
787,83.200950,15752,130
788,83.310667,16218,131
789,83.420383,15921,130
790,83.530100,15672,130
791,83.639817,16016,131
792,83.749283,15424,130
793,83.859267,14011,128
794,83.968983,15978,131
795,84.078183,16435,132
796,84.187383,15866,131
797,84.296850,15867,131
798,84.406300,16205,131
799,84.516017,16148,131
800,84.625483,16323,131
801,84.734950,8560,116
802,84.844400,16385,132
803,84.953867,16208,131
804,85.063067,16434,132
805,85.172783,16397,131
806,85.282250,16639,132
807,85.391450,16233,131
808,85.501167,16353,132
809,85.610883,16094,131
810,85.720083,16405,132
811,85.829800,16107,131
812,85.939533,16484,132
813,86.048983,16074,131
814,86.158450,16226,131
815,86.267900,16377,132
816,86.377367,16291,132
817,86.486833,16644,132
818,86.596550,16355,132
819,86.706017,16203,131
820,86.815467,16369,131
821,86.924933,16084,131
822,87.034383,16179,131
823,87.143583,16730,132
824,87.253317,5220,89
825,87.362250,8677,100
826,87.471717,8498,100
827,87.581167,9476,104
828,87.690367,14951,119
829,87.799833,15501,121
830,87.908767,15747,125
831,88.017717,16395,128
832,88.127433,16033,130
833,88.236883,16134,130
834,88.346350,16219,131
835,88.456600,16191,131
836,88.566567,16108,131
837,88.676300,16387,132
838,88.785500,15819,131
839,88.895217,16009,131
840,89.004667,15982,131
841,89.114133,16408,132
842,89.223850,15951,131
843,89.333567,16397,132
844,89.443300,15718,130
845,89.552750,16421,131
846,89.662467,15908,130
847,89.771933,16043,130
848,89.881400,15941,130
849,89.991117,16428,131
850,90.100050,15863,130
851,90.209767,16207,130
852,90.319233,16318,130
853,90.428700,16108,130
854,90.538417,16203,130
855,90.647883,16016,130
856,90.757333,15963,130
857,90.867050,16452,131
858,90.976517,16344,130
859,91.085717,16142,130
860,91.195433,16135,130
861,91.305150,16586,131
862,91.414883,16049,130
863,91.524083,16436,131
864,91.633800,16145,130
865,91.743517,16254,130
866,91.852983,16251,130
867,91.962433,16213,130
868,92.071900,15724,129
869,92.181367,16335,131
870,92.291083,16420,131
871,92.400800,15661,130
872,92.510517,15929,130
873,92.619983,16407,131
874,92.729700,16008,130
875,92.839417,16276,130
876,92.948883,16376,131
877,93.057817,16335,131
878,93.167283,16276,130
879,93.276733,16394,131
880,93.386200,16003,130
881,93.495917,15842,130
882,93.605383,16354,131
883,93.714833,15829,130
884,93.824567,16203,131
885,93.933767,16066,130
886,94.044000,16380,131
887,94.153467,16360,131
888,94.263183,16224,131
889,94.372900,16656,131
890,94.482100,16325,131
891,94.591817,15956,130
892,94.701283,15992,130
893,94.810750,16028,130
894,94.920467,16023,130
895,95.029917,16069,130
896,95.139117,16358,131
897,95.248850,16213,131
898,95.358050,16567,131
899,95.467250,16130,131
900,95.576967,16156,131
901,95.686417,16437,131
902,95.795883,16400,131
903,95.905350,16163,131
904,96.014550,16052,130
905,96.124533,15848,130
906,96.234250,15825,130
907,96.343967,15969,130
908,96.453950,16241,130
909,96.563400,16249,130
910,96.672867,15962,130
911,96.782333,15657,129
